PE IR       SPECTRUM    SPECTRUM    ASCII       PEDS        1.60        
  -1
SIC.ASC
80/01/12
23:23:26.00
80/01/12
23:23:26.00
Admin

400.000000
4









502,2.19
LITAO3
MIR
KBR
70765
0.300000
1
4.000000
STRONG
RATIO
SPECTRUM


DOUBLE
4
BI DIRECTIONAL
2

0


#HDR
-1
-1
#GR
CM-1
%T
0.00002384185791015625
0.0
6000.000000
-2.000000
2801
8
14.012145
5.448913
#DATA
6000.000000	6.890106  
5998.000000	6.991577  
5996.000000	7.064819  
5994.000000	7.019042  
5992.000000	7.013702  
5990.000000	6.997680  
5988.000000	6.906127  
5986.000000	6.870269  
5984.000000	6.946563  
5982.000000	7.040405  
5980.000000	7.094573  
5978.000000	7.073974  
5976.000000	7.032775  
5974.000000	6.996154  
5972.000000	6.920623  
5970.000000	6.893157  
5968.000000	6.981658  
5966.000000	7.016754  
5964.000000	6.969451  
5962.000000	6.974029  
5960.000000	7.031250  
5958.000000	7.070922  
5956.000000	7.022857  
5954.000000	6.919097  
5952.000000	6.877899  
5950.000000	7.014465  
5948.000000	7.064056  
5946.000000	7.024383  
5944.000000	7.080841  
5942.000000	7.084655  
5940.000000	7.007598  
5938.000000	6.991577  
5936.000000	6.983184  
5934.000000	6.948852  
5932.000000	6.973266  
5930.000000	6.964111  
5928.000000	6.980133  
5926.000000	7.051849  
5924.000000	7.014465  
5922.000000	6.928253  
5920.000000	6.887054  
5918.000000	6.882476  
5916.000000	6.918334  
5914.000000	6.916809  
5912.000000	6.872558  
5910.000000	6.885528  
5908.000000	6.958770  
5906.000000	6.997680  
5904.000000	6.978607  
5902.000000	6.933593  
5900.000000	6.977081  
5898.000000	6.945800  
5896.000000	6.961059  
5894.000000	6.977844  
5892.000000	6.970977  
5890.000000	7.031250  
5888.000000	7.035064  
5886.000000	7.022857  
5884.000000	7.019042  
5882.000000	6.999969  
5880.000000	6.986236  
5878.000000	6.967926  
5876.000000	6.896209  
5874.000000	6.845855  
5872.000000	6.903839  
5870.000000	7.015228  
5868.000000	7.013702  
5866.000000	6.945800  
5864.000000	6.957244  
5862.000000	6.986236  
5860.000000	6.973266  
5858.000000	6.905364  
5856.000000	6.937408  
5854.000000	6.983947  
5852.000000	6.974029  
5850.000000	6.945800  
5848.000000	6.938934  
5846.000000	6.980895  
5844.000000	6.925201  
5842.000000	6.906127  
5840.000000	6.967926  
5838.000000	6.934356  
5836.000000	6.893157  
5834.000000	6.941986  
5832.000000	7.003021  
5830.000000	7.013702  
5828.000000	6.929779  
5826.000000	6.917572  
5824.000000	6.958770  
5822.000000	6.976318  
5820.000000	7.035827  
5818.000000	7.069396  
5816.000000	7.028961  
5814.000000	6.962585  
5812.000000	6.916046  
5810.000000	6.892395  
5808.000000	6.855010  
5806.000000	6.853485  
5804.000000	6.896972  
5802.000000	6.930541  
5800.000000	6.929016  
5798.000000	6.946563  
5796.000000	6.991577  
5794.000000	7.000732  
5792.000000	6.905364  
5790.000000	6.900787  
5788.000000	6.987762  
5786.000000	6.970214  
5784.000000	6.951141  
5782.000000	6.994628  
5780.000000	6.969451  
5778.000000	6.986236  
5776.000000	7.014465  
5774.000000	6.942749  
5772.000000	6.959533  
5770.000000	6.993103  
5768.000000	6.926727  
5766.000000	6.916046  
5764.000000	6.964874  
5762.000000	6.974792  
5760.000000	6.990814  
5758.000000	7.013702  
5756.000000	6.961059  
5754.000000	6.918334  
5752.000000	6.968688  
5750.000000	7.038879  
5748.000000	7.041168  
5746.000000	7.008361  
5744.000000	6.999206  
5742.000000	7.036590  
5740.000000	7.085418  
5738.000000	7.077026  
5736.000000	7.103729  
5734.000000	7.124328  
5732.000000	6.993865  
5730.000000	6.864929  
5728.000000	6.883239  
5726.000000	6.930541  
5724.000000	7.011413  
5722.000000	7.007598  
5720.000000	6.929779  
5718.000000	6.945800  
5716.000000	7.021331  
5714.000000	7.044219  
5712.000000	7.036590  
5710.000000	6.983184  
5708.000000	6.937408  
5706.000000	6.978607  
5704.000000	7.005310  
5702.000000	6.970214  
5700.000000	6.949615  
5698.000000	6.933593  
5696.000000	6.891632  
5694.000000	6.906890  
5692.000000	6.946563  
5690.000000	6.938934  
5688.000000	6.944274  
5686.000000	6.972503  
5684.000000	6.994628  
5682.000000	6.959533  
5680.000000	6.927490  
5678.000000	6.903839  
5676.000000	6.880950  
5674.000000	6.923675  
5672.000000	6.985473  
5670.000000	7.008361  
5668.000000	6.986999  
5666.000000	6.958007  
5664.000000	6.962585  
5662.000000	7.043457  
5660.000000	7.043457  
5658.000000	6.981658  
5656.000000	6.999206  
5654.000000	6.992340  
5652.000000	7.043457  
5650.000000	7.110595  
5648.000000	7.080841  
5646.000000	7.012176  
5644.000000	6.919097  
5642.000000	6.912994  
5640.000000	6.959533  
5638.000000	6.962585  
5636.000000	6.989288  
5634.000000	7.003784  
5632.000000	7.024383  
5630.000000	7.061767  
5628.000000	7.031250  
5626.000000	6.976318  
5624.000000	6.926727  
5622.000000	6.871032  
5620.000000	6.937408  
5618.000000	6.999969  
5616.000000	7.009124  
5614.000000	7.001495  
5612.000000	6.986236  
5610.000000	7.022094  
5608.000000	7.035827  
5606.000000	6.966400  
5604.000000	6.923675  
5602.000000	7.003784  
5600.000000	7.057952  
5598.000000	7.004547  
5596.000000	6.951141  
5594.000000	6.943511  
5592.000000	6.962585  
5590.000000	6.951141  
5588.000000	6.988525  
5586.000000	7.033538  
5584.000000	7.015991  
5582.000000	7.012939  
5580.000000	6.975555  
5578.000000	6.969451  
5576.000000	7.012176  
5574.000000	6.965637  
5572.000000	6.916809  
5570.000000	6.972503  
5568.000000	6.980133  
5566.000000	6.921386  
5564.000000	6.943511  
5562.000000	7.001495  
5560.000000	7.006072  
5558.000000	6.945037  
5556.000000	6.929016  
5554.000000	6.964111  
5552.000000	6.956481  
5550.000000	6.957244  
5548.000000	6.974029  
5546.000000	6.992340  
5544.000000	7.034301  
5542.000000	7.045745  
5540.000000	6.983184  
5538.000000	6.972503  
5536.000000	7.026672  
5534.000000	7.011413  
5532.000000	6.970214  
5530.000000	6.966400  
5528.000000	6.976318  
5526.000000	6.925201  
5524.000000	6.835174  
5522.000000	6.889343  
5520.000000	6.944274  
5518.000000	6.922912  
5516.000000	6.963348  
5514.000000	6.970214  
5512.000000	6.969451  
5510.000000	6.929779  
5508.000000	6.947326  
5506.000000	7.009124  
5504.000000	7.053375  
5502.000000	7.000732  
5500.000000	6.968688  
5498.000000	7.006072  
5496.000000	6.818389  
5494.000000	6.747436  
5492.000000	6.968688  
5490.000000	7.074737  
5488.000000	7.158660  
5486.000000	7.184600  
5484.000000	7.093811  
5482.000000	6.991577  
5480.000000	6.858062  
5478.000000	6.555175  
5476.000000	6.708526  
5474.000000	7.244873  
5472.000000	7.242584  
5470.000000	6.981658  
5468.000000	6.971740  
5466.000000	7.016754  
5464.000000	6.878662  
5462.000000	6.828308  
5460.000000	7.052612  
5458.000000	7.073211  
5456.000000	7.087707  
5454.000000	7.086944  
5452.000000	6.893920  
5450.000000	6.842041  
5448.000000	6.845855  
5446.000000	6.954956  
5444.000000	6.984710  
5442.000000	6.954956  
5440.000000	7.212829  
5438.000000	6.971740  
5436.000000	6.777191  
5434.000000	7.075500  
5432.000000	6.869506  
5430.000000	6.722259  
5428.000000	7.273864  
5426.000000	7.442474  
5424.000000	7.225036  
5422.000000	7.077789  
5420.000000	7.019042  
5418.000000	6.799316  
5416.000000	6.460571  
5414.000000	6.648254  
5412.000000	7.020568  
5410.000000	7.325744  
5408.000000	7.363128  
5406.000000	7.149505  
5404.000000	7.046508  
5402.000000	7.021331  
5400.000000	6.894683  
5398.000000	6.710815  
5396.000000	6.659698  
5394.000000	7.002258  
5392.000000	7.382965  
5390.000000	7.150268  
5388.000000	6.756591  
5386.000000	6.912231  
5384.000000	7.291412  
5382.000000	7.215881  
5380.000000	6.809234  
5378.000000	6.643676  
5376.000000	7.064056  
5374.000000	7.402801  
5372.000000	7.323455  
5370.000000	7.148742  
5368.000000	6.962585  
5366.000000	6.824493  
5364.000000	6.930541  
5362.000000	7.120513  
5360.000000	7.176208  
5358.000000	6.940460  
5356.000000	6.482696  
5354.000000	6.698608  
5352.000000	7.137298  
5350.000000	7.057189  
5348.000000	6.760406  
5346.000000	6.576538  
5344.000000	7.172393  
5342.000000	7.175445  
5340.000000	6.719970  
5338.000000	7.067871  
5336.000000	7.413482  
5334.000000	7.167053  
5332.000000	7.015228  
5330.000000	6.877899  
5328.000000	6.919097  
5326.000000	7.207489  
5324.000000	7.202148  
5322.000000	7.093048  
5320.000000	7.002258  
5318.000000	6.951904  
5316.000000	7.033538  
5314.000000	7.105255  
5312.000000	7.019805  
5310.000000	6.775665  
5308.000000	6.909179  
5306.000000	7.204437  
5304.000000	7.112121  
5302.000000	6.951904  
5300.000000	7.005310  
5298.000000	7.092285  
5296.000000	7.061004  
5294.000000	6.944274  
5292.000000	6.759643  
5290.000000	6.986999  
5288.000000	7.106781  
5286.000000	6.988525  
5284.000000	7.011413  
5282.000000	7.029724  
5280.000000	7.103729  
5278.000000	7.128906  
5276.000000	7.049560  
5274.000000	6.957244  
5272.000000	6.843566  
5270.000000	6.854248  
5268.000000	6.851196  
5266.000000	6.705474  
5264.000000	6.865692  
5262.000000	7.267761  
5260.000000	7.362365  
5258.000000	6.972503  
5256.000000	6.793212  
5254.000000	7.141876  
5252.000000	7.051086  
5250.000000	6.685638  
5248.000000	6.801605  
5246.000000	6.969451  
5244.000000	7.216644  
5242.000000	7.292175  
5240.000000	7.102203  
5238.000000	7.006835  
5236.000000	6.915283  
5234.000000	6.830596  
5232.000000	6.904602  
5230.000000	7.028198  
5228.000000	6.809234  
5226.000000	6.864929  
5224.000000	7.233428  
5222.000000	7.233428  
5220.000000	7.054138  
5218.000000	7.003784  
5216.000000	7.112884  
5214.000000	7.135009  
5212.000000	6.902313  
5210.000000	6.615447  
5208.000000	6.668853  
5206.000000	7.217407  
5204.000000	7.495117  
5202.000000	7.296752  
5200.000000	6.950378  
5198.000000	6.901550  
5196.000000	7.167816  
5194.000000	7.177734  
5192.000000	7.006072  
5190.000000	6.967926  
5188.000000	6.978607  
5186.000000	6.969451  
5184.000000	7.099151  
5182.000000	7.093048  
5180.000000	7.106781  
5178.000000	7.144165  
5176.000000	7.107543  
5174.000000	7.048797  
5172.000000	7.047271  
5170.000000	7.130432  
5168.000000	7.085418  
5166.000000	6.946563  
5164.000000	6.993865  
5162.000000	7.112884  
5160.000000	7.057952  
5158.000000	6.973266  
5156.000000	7.035064  
5154.000000	7.064819  
5152.000000	7.039642  
5150.000000	7.069396  
5148.000000	7.064819  
5146.000000	6.987762  
5144.000000	6.957244  
5142.000000	7.041168  
5140.000000	7.114410  
5138.000000	7.091522  
5136.000000	7.044219  
5134.000000	7.056427  
5132.000000	7.064056  
5130.000000	7.054901  
5128.000000	7.024383  
5126.000000	6.994628  
5124.000000	7.035827  
5122.000000	7.026672  
5120.000000	7.029724  
5118.000000	7.126617  
5116.000000	7.145690  
5114.000000	7.099914  
5112.000000	7.044982  
5110.000000	7.015991  
5108.000000	6.984710  
5106.000000	6.967163  
5104.000000	7.031250  
5102.000000	7.079315  
5100.000000	7.024383  
5098.000000	6.981658  
5096.000000	7.037353  
5094.000000	7.089996  
5092.000000	7.043457  
5090.000000	6.966400  
5088.000000	6.964874  
5086.000000	6.999969  
5084.000000	7.038879  
5082.000000	7.072448  
5080.000000	7.067108  
5078.000000	7.042694  
5076.000000	7.023620  
5074.000000	7.049560  
5072.000000	7.073974  
5070.000000	7.052612  
5068.000000	7.021331  
5066.000000	7.058715  
5064.000000	7.112884  
5062.000000	7.096099  
5060.000000	7.056427  
5058.000000	7.016754  
5056.000000	6.975555  
5054.000000	7.004547  
5052.000000	7.027435  
5050.000000	7.025146  
5048.000000	7.041931  
5046.000000	7.032012  
5044.000000	7.031250  
5042.000000	7.024383  
5040.000000	6.990051  
5038.000000	6.982421  
5036.000000	6.978607  
5034.000000	6.996154  
5032.000000	7.032012  
5030.000000	7.040405  
5028.000000	7.030487  
5026.000000	7.019042  
5024.000000	7.013702  
5022.000000	7.036590  
5020.000000	7.061004  
5018.000000	7.028198  
5016.000000	7.020568  
5014.000000	7.054901  
5012.000000	7.048034  
5010.000000	7.036590  
5008.000000	7.051849  
5006.000000	7.061004  
5004.000000	7.032775  
5002.000000	7.003021  
5000.000000	7.025146  
4998.000000	7.054901  
4996.000000	7.022857  
4994.000000	7.010650  
4992.000000	7.041931  
4990.000000	7.011413  
4988.000000	6.960296  
4986.000000	7.002258  
4984.000000	7.032775  
4982.000000	7.022094  
4980.000000	7.049560  
4978.000000	7.077789  
4976.000000	7.076263  
4974.000000	7.077026  
4972.000000	7.049560  
4970.000000	7.022857  
4968.000000	7.025909  
4966.000000	7.051086  
4964.000000	7.047271  
4962.000000	7.015228  
4960.000000	7.032012  
4958.000000	7.057952  
4956.000000	7.046508  
4954.000000	7.028198  
4952.000000	7.025909  
4950.000000	7.045745  
4948.000000	7.028198  
4946.000000	7.005310  
4944.000000	7.031250  
4942.000000	7.038879  
4940.000000	7.003784  
4938.000000	6.961059  
4936.000000	6.986999  
4934.000000	7.053375  
4932.000000	7.059478  
4930.000000	7.034301  
4928.000000	7.033538  
4926.000000	7.065582  
4924.000000	7.080078  
4922.000000	7.024383  
4920.000000	6.982421  
4918.000000	6.996154  
4916.000000	6.998443  
4914.000000	7.006072  
4912.000000	7.025909  
4910.000000	7.038116  
4908.000000	7.057952  
4906.000000	7.080841  
4904.000000	7.111358  
4902.000000	7.131195  
4900.000000	7.133483  
4898.000000	7.121276  
4896.000000	7.090759  
4894.000000	7.071685  
4892.000000	7.055664  
4890.000000	7.046508  
4888.000000	7.061767  
4886.000000	7.080078  
4884.000000	7.083892  
4882.000000	7.085418  
4880.000000	7.081604  
4878.000000	7.089996  
4876.000000	7.083129  
4874.000000	7.025909  
4872.000000	6.977081  
4870.000000	7.028198  
4868.000000	7.103729  
4866.000000	7.112884  
4864.000000	7.067108  
4862.000000	7.030487  
4860.000000	7.037353  
4858.000000	7.061004  
4856.000000	7.059478  
4854.000000	7.041168  
4852.000000	7.045745  
4850.000000	7.032012  
4848.000000	7.005310  
4846.000000	6.996917  
4844.000000	7.011413  
4842.000000	7.022094  
4840.000000	7.029724  
4838.000000	7.019805  
4836.000000	7.023620  
4834.000000	7.041931  
4832.000000	7.041168  
4830.000000	7.037353  
4828.000000	7.035827  
4826.000000	7.032012  
4824.000000	7.037353  
4822.000000	7.033538  
4820.000000	7.045745  
4818.000000	7.052612  
4816.000000	7.045745  
4814.000000	7.048034  
4812.000000	7.032012  
4810.000000	7.057952  
4808.000000	7.079315  
4806.000000	7.094573  
4804.000000	7.096862  
4802.000000	7.061004  
4800.000000	7.047271  
4798.000000	7.051086  
4796.000000	7.038879  
4794.000000	7.026672  
4792.000000	7.031250  
4790.000000	7.045745  
4788.000000	7.061767  
4786.000000	7.060241  
4784.000000	7.058715  
4782.000000	7.083129  
4780.000000	7.075500  
4778.000000	7.071685  
4776.000000	7.075500  
4774.000000	7.050323  
4772.000000	7.046508  
4770.000000	7.064056  
4768.000000	7.075500  
4766.000000	7.070922  
4764.000000	7.039642  
4762.000000	7.025909  
4760.000000	7.032775  
4758.000000	7.022857  
4756.000000	7.015228  
4754.000000	7.022094  
4752.000000	7.028961  
4750.000000	7.036590  
4748.000000	7.058715  
4746.000000	7.059478  
4744.000000	7.030487  
4742.000000	7.022857  
4740.000000	7.037353  
4738.000000	7.027435  
4736.000000	7.006835  
4734.000000	7.010650  
4732.000000	7.035827  
4730.000000	7.040405  
4728.000000	7.026672  
4726.000000	7.025146  
4724.000000	7.018280  
4722.000000	6.996917  
4720.000000	7.027435  
4718.000000	7.056427  
4716.000000	7.015228  
4714.000000	6.993103  
4712.000000	7.012939  
4710.000000	7.005310  
4708.000000	6.984710  
4706.000000	6.990814  
4704.000000	7.008361  
4702.000000	7.018280  
4700.000000	7.016754  
4698.000000	7.032012  
4696.000000	7.054138  
4694.000000	7.056427  
4692.000000	7.034301  
4690.000000	6.999206  
4688.000000	7.009124  
4686.000000	7.029724  
4684.000000	7.028961  
4682.000000	7.025909  
4680.000000	7.049560  
4678.000000	7.071685  
4676.000000	7.031250  
4674.000000	6.977844  
4672.000000	6.983947  
4670.000000	7.029724  
4668.000000	7.054901  
4666.000000	7.050323  
4664.000000	7.044982  
4662.000000	7.040405  
4660.000000	7.038879  
4658.000000	7.062530  
4656.000000	7.089233  
4654.000000	7.085418  
4652.000000	7.044219  
4650.000000	7.006835  
4648.000000	7.003784  
4646.000000	7.024383  
4644.000000	7.057952  
4642.000000	7.048034  
4640.000000	7.010650  
4638.000000	7.020568  
4636.000000	7.016754  
4634.000000	7.008361  
4632.000000	7.021331  
4630.000000	7.034301  
4628.000000	7.025909  
4626.000000	7.004547  
4624.000000	7.010650  
4622.000000	7.030487  
4620.000000	7.025146  
4618.000000	7.028198  
4616.000000	7.019805  
4614.000000	6.997680  
4612.000000	7.013702  
4610.000000	7.057952  
4608.000000	7.064056  
4606.000000	7.037353  
4604.000000	7.015991  
4602.000000	7.018280  
4600.000000	7.031250  
4598.000000	7.058715  
4596.000000	7.082366  
4594.000000	7.061004  
4592.000000	7.049560  
4590.000000	7.049560  
4588.000000	7.054901  
4586.000000	7.084655  
4584.000000	7.102966  
4582.000000	7.094573  
4580.000000	7.084655  
4578.000000	7.071685  
4576.000000	7.049560  
4574.000000	7.057952  
4572.000000	7.082366  
4570.000000	7.095336  
4568.000000	7.106781  
4566.000000	7.128906  
4564.000000	7.144165  
4562.000000	7.129669  
4560.000000	7.111358  
4558.000000	7.094573  
4556.000000	7.067108  
4554.000000	7.061004  
4552.000000	7.068634  
4550.000000	7.067108  
4548.000000	7.066345  
4546.000000	7.059478  
4544.000000	7.044219  
4542.000000	7.030487  
4540.000000	7.033538  
4538.000000	7.064819  
4536.000000	7.086181  
4534.000000	7.088470  
4532.000000	7.073211  
4530.000000	7.053375  
4528.000000	7.062530  
4526.000000	7.057189  
4524.000000	7.055664  
4522.000000	7.080841  
4520.000000	7.102203  
4518.000000	7.092285  
4516.000000	7.073974  
4514.000000	7.071685  
4512.000000	7.076263  
4510.000000	7.081604  
4508.000000	7.068634  
4506.000000	7.044982  
4504.000000	7.048034  
4502.000000	7.059478  
4500.000000	7.066345  
4498.000000	7.071685  
4496.000000	7.066345  
4494.000000	7.070159  
4492.000000	7.078552  
4490.000000	7.078552  
4488.000000	7.073211  
4486.000000	7.077026  
4484.000000	7.089996  
4482.000000	7.105255  
4480.000000	7.109069  
4478.000000	7.096099  
4476.000000	7.091522  
4474.000000	7.096862  
4472.000000	7.080078  
4470.000000	7.083129  
4468.000000	7.089996  
4466.000000	7.094573  
4464.000000	7.101440  
4462.000000	7.106781  
4460.000000	7.115936  
4458.000000	7.109832  
4456.000000	7.083892  
4454.000000	7.061767  
4452.000000	7.084655  
4450.000000	7.111358  
4448.000000	7.118225  
4446.000000	7.128143  
4444.000000	7.124328  
4442.000000	7.115173  
4440.000000	7.118988  
4438.000000	7.128143  
4436.000000	7.117462  
4434.000000	7.096099  
4432.000000	7.082366  
4430.000000	7.084655  
4428.000000	7.077789  
4426.000000	7.064056  
4424.000000	7.090759  
4422.000000	7.110595  
4420.000000	7.088470  
4418.000000	7.063293  
4416.000000	7.069396  
4414.000000	7.083892  
4412.000000	7.077789  
4410.000000	7.064056  
4408.000000	7.064056  
4406.000000	7.083892  
4404.000000	7.083129  
4402.000000	7.081604  
4400.000000	7.091522  
4398.000000	7.082366  
4396.000000	7.059478  
4394.000000	7.054138  
4392.000000	7.057952  
4390.000000	7.085418  
4388.000000	7.113647  
4386.000000	7.091522  
4384.000000	7.057189  
4382.000000	7.052612  
4380.000000	7.065582  
4378.000000	7.096862  
4376.000000	7.103729  
4374.000000	7.079315  
4372.000000	7.101440  
4370.000000	7.124328  
4368.000000	7.110595  
4366.000000	7.122802  
4364.000000	7.133483  
4362.000000	7.123565  
4360.000000	7.132720  
4358.000000	7.129669  
4356.000000	7.113647  
4354.000000	7.101440  
4352.000000	7.112121  
4350.000000	7.124328  
4348.000000	7.125091  
4346.000000	7.135009  
4344.000000	7.135009  
4342.000000	7.131958  
4340.000000	7.125091  
4338.000000	7.107543  
4336.000000	7.117462  
4334.000000	7.145690  
4332.000000	7.154846  
4330.000000	7.137298  
4328.000000	7.124328  
4326.000000	7.136535  
4324.000000	7.145690  
4322.000000	7.124328  
4320.000000	7.101440  
4318.000000	7.101440  
4316.000000	7.102203  
4314.000000	7.118988  
4312.000000	7.109832  
4310.000000	7.095336  
4308.000000	7.083892  
4306.000000	7.074737  
4304.000000	7.091522  
4302.000000	7.092285  
4300.000000	7.090759  
4298.000000	7.089996  
4296.000000	7.089996  
4294.000000	7.103729  
4292.000000	7.113647  
4290.000000	7.120513  
4288.000000	7.110595  
4286.000000	7.093811  
4284.000000	7.102203  
4282.000000	7.101440  
4280.000000	7.102966  
4278.000000	7.100677  
4276.000000	7.093048  
4274.000000	7.108306  
4272.000000	7.122039  
4270.000000	7.113647  
4268.000000	7.093811  
4266.000000	7.093811  
4264.000000	7.102203  
4262.000000	7.118988  
4260.000000	7.115173  
4258.000000	7.106018  
4256.000000	7.138061  
4254.000000	7.151794  
4252.000000	7.129669  
4250.000000	7.120513  
4248.000000	7.130432  
4246.000000	7.147216  
4244.000000	7.164001  
4242.000000	7.138824  
4240.000000	7.116699  
4238.000000	7.125091  
4236.000000	7.117462  
4234.000000	7.118225  
4232.000000	7.144165  
4230.000000	7.157897  
4228.000000	7.137298  
4226.000000	7.109069  
4224.000000	7.102203  
4222.000000	7.105255  
4220.000000	7.102966  
4218.000000	7.123565  
4216.000000	7.128143  
4214.000000	7.103729  
4212.000000	7.082366  
4210.000000	7.089996  
4208.000000	7.086944  
4206.000000	7.093811  
4204.000000	7.105255  
4202.000000	7.108306  
4200.000000	7.115936  
4198.000000	7.121276  
4196.000000	7.118225  
4194.000000	7.096099  
4192.000000	7.092285  
4190.000000	7.117462  
4188.000000	7.116699  
4186.000000	7.099914  
4184.000000	7.113647  
4182.000000	7.117462  
4180.000000	7.098388  
4178.000000	7.094573  
4176.000000	7.099914  
4174.000000	7.091522  
4172.000000	7.102966  
4170.000000	7.138061  
4168.000000	7.152557  
4166.000000	7.134246  
4164.000000	7.121276  
4162.000000	7.116699  
4160.000000	7.112884  
4158.000000	7.118225  
4156.000000	7.125091  
4154.000000	7.134246  
4152.000000	7.140350  
4150.000000	7.138061  
4148.000000	7.128143  
4146.000000	7.137298  
4144.000000	7.136535  
4142.000000	7.120513  
4140.000000	7.127380  
4138.000000	7.144927  
4136.000000	7.133483  
4134.000000	7.136535  
4132.000000	7.165527  
4130.000000	7.163238  
4128.000000	7.147979  
4126.000000	7.146453  
4124.000000	7.136535  
4122.000000	7.147979  
4120.000000	7.169342  
4118.000000	7.173919  
4116.000000	7.155609  
4114.000000	7.121276  
4112.000000	7.112884  
4110.000000	7.121276  
4108.000000	7.106018  
4106.000000	7.120513  
4104.000000	7.160186  
4102.000000	7.144927  
4100.000000	7.098388  
4098.000000	7.091522  
4096.000000	7.105255  
4094.000000	7.113647  
4092.000000	7.114410  
4090.000000	7.101440  
4088.000000	7.110595  
4086.000000	7.124328  
4084.000000	7.106781  
4082.000000	7.083129  
4080.000000	7.099914  
4078.000000	7.140350  
4076.000000	7.131195  
4074.000000	7.125091  
4072.000000	7.138824  
4070.000000	7.131958  
4068.000000	7.116699  
4066.000000	7.112884  
4064.000000	7.107543  
4062.000000	7.096099  
4060.000000	7.114410  
4058.000000	7.120513  
4056.000000	7.104492  
4054.000000	7.106781  
4052.000000	7.123565  
4050.000000	7.136535  
4048.000000	7.110595  
4046.000000	7.079315  
4044.000000	7.144165  
4042.000000	7.171630  
4040.000000	7.157897  
4038.000000	7.157897  
4036.000000	7.137298  
4034.000000	7.134246  
4032.000000	7.151794  
4030.000000	7.160949  
4028.000000	7.142639  
4026.000000	7.141113  
4024.000000	7.187652  
4022.000000	7.160949  
4020.000000	7.144165  
4018.000000	7.178497  
4016.000000	7.188415  
4014.000000	7.176208  
4012.000000	7.138061  
4010.000000	7.126617  
4008.000000	7.198333  
4006.000000	7.218933  
4004.000000	7.180786  
4002.000000	7.170104  
4000.000000	7.160186  
3998.000000	7.130432  
3996.000000	7.121276  
3994.000000	7.139587  
3992.000000	7.114410  
3990.000000	7.171630  
3988.000000	7.198333  
3986.000000	7.148742  
3984.000000	7.135009  
3982.000000	7.164764  
3980.000000	7.173156  
3978.000000	7.099914  
3976.000000	7.067108  
3974.000000	7.137298  
3972.000000	7.172393  
3970.000000	7.177734  
3968.000000	7.213592  
3966.000000	7.161712  
3964.000000	7.032775  
3962.000000	7.087707  
3960.000000	7.190704  
3958.000000	7.167816  
3956.000000	7.164764  
3954.000000	7.101440  
3952.000000	6.930541  
3950.000000	6.921386  
3948.000000	7.221221  
3946.000000	7.141113  
3944.000000	6.941223  
3942.000000	7.316589  
3940.000000	7.418823  
3938.000000	7.258605  
3936.000000	6.989288  
3934.000000	6.690216  
3932.000000	7.002258  
3930.000000	7.436370  
3928.000000	7.271575  
3926.000000	6.898498  
3924.000000	7.201385  
3922.000000	7.200622  
3920.000000	6.912994  
3918.000000	7.061004  
3916.000000	7.542419  
3914.000000	7.546234  
3912.000000	7.288360  
3910.000000	7.115936  
3908.000000	6.622314  
3906.000000	6.121826  
3904.000000	6.514739  
3902.000000	7.186126  
3900.000000	7.651519  
3898.000000	8.042144  
3896.000000	7.539367  
3894.000000	6.636047  
3892.000000	6.851196  
3890.000000	7.619476  
3888.000000	6.829071  
3886.000000	6.727600  
3884.000000	7.294464  
3882.000000	6.922912  
3880.000000	7.649993  
3878.000000	7.746887  
3876.000000	6.727600  
3874.000000	6.685638  
3872.000000	6.517028  
3870.000000	7.073974  
3868.000000	7.746124  
3866.000000	6.902313  
3864.000000	7.250213  
3862.000000	7.827758  
3860.000000	7.496643  
3858.000000	6.533813  
3856.000000	5.448913  
3854.000000	5.947113  
3852.000000	8.732604  
3850.000000	8.762359  
3848.000000	7.735443  
3846.000000	6.831359  
3844.000000	6.498718  
3842.000000	6.417083  
3840.000000	6.385040  
3838.000000	7.222747  
3836.000000	7.894134  
3834.000000	7.617950  
3832.000000	7.556152  
3830.000000	7.489013  
3828.000000	7.033538  
3826.000000	7.151794  
3824.000000	6.453704  
3822.000000	6.089019  
3820.000000	7.692718  
3818.000000	7.341766  
3816.000000	7.589721  
3814.000000	8.263397  
3812.000000	7.586669  
3810.000000	6.716156  
3808.000000	6.428527  
3806.000000	7.241821  
3804.000000	6.643676  
3802.000000	6.694793  
3800.000000	7.977294  
3798.000000	7.602691  
3796.000000	7.714080  
3794.000000	7.814788  
3792.000000	7.402038  
3790.000000	7.183837  
3788.000000	6.980895  
3786.000000	6.941986  
3784.000000	7.287597  
3782.000000	6.974792  
3780.000000	6.968688  
3778.000000	7.656860  
3776.000000	7.569122  
3774.000000	7.049560  
3772.000000	6.486511  
3770.000000	6.862640  
3768.000000	7.324981  
3766.000000	7.305145  
3764.000000	7.543945  
3762.000000	6.852722  
3760.000000	6.666564  
3758.000000	7.290649  
3756.000000	7.142639  
3754.000000	6.059265  
3752.000000	5.802917  
3750.000000	7.470703  
3748.000000	7.588958  
3746.000000	6.637573  
3744.000000	7.841491  
3742.000000	8.233642  
3740.000000	7.071685  
3738.000000	5.988311  
3736.000000	6.198120  
3734.000000	7.633972  
3732.000000	8.400726  
3730.000000	7.904052  
3728.000000	6.964111  
3726.000000	6.936645  
3724.000000	7.200622  
3722.000000	7.511901  
3720.000000	7.637023  
3718.000000	7.549285  
3716.000000	6.984710  
3714.000000	6.100463  
3712.000000	6.400299  
3710.000000	7.958221  
3708.000000	8.250427  
3706.000000	7.608795  
3704.000000	6.882476  
3702.000000	7.093048  
3700.000000	7.708740  
3698.000000	7.442474  
3696.000000	7.158660  
3694.000000	6.708526  
3692.000000	6.060028  
3690.000000	6.544494  
3688.000000	8.137512  
3686.000000	8.280181  
3684.000000	7.601165  
3682.000000	7.014465  
3680.000000	6.612396  
3678.000000	5.904388  
3676.000000	6.511688  
3674.000000	8.160400  
3672.000000	7.100677  
3670.000000	7.395172  
3668.000000	8.521270  
3666.000000	8.012390  
3664.000000	7.436370  
3662.000000	7.212829  
3660.000000	6.948089  
3658.000000	6.536865  
3656.000000	7.147979  
3654.000000	7.131195  
3652.000000	5.696105  
3650.000000	5.837249  
3648.000000	8.119201  
3646.000000	8.830261  
3644.000000	7.965087  
3642.000000	7.373809  
3640.000000	7.270050  
3638.000000	7.191467  
3636.000000	7.015228  
3634.000000	6.921386  
3632.000000	6.381225  
3630.000000	6.020355  
3628.000000	7.954406  
3626.000000	8.379364  
3624.000000	7.434082  
3622.000000	6.526184  
3620.000000	6.520843  
3618.000000	7.502746  
3616.000000	7.369995  
3614.000000	7.113647  
3612.000000	7.339477  
3610.000000	7.083892  
3608.000000	7.468414  
3606.000000	7.862091  
3604.000000	7.374572  
3602.000000	6.969451  
3600.000000	7.143402  
3598.000000	7.178497  
3596.000000	7.095336  
3594.000000	7.456970  
3592.000000	7.395172  
3590.000000	6.578826  
3588.000000	6.708526  
3586.000000	7.913970  
3584.000000	7.859039  
3582.000000	7.389068  
3580.000000	7.236480  
3578.000000	7.244110  
3576.000000	7.280731  
3574.000000	7.346343  
3572.000000	7.133483  
3570.000000	6.444549  
3568.000000	6.351470  
3566.000000	7.678222  
3564.000000	8.000946  
3562.000000	7.551574  
3560.000000	7.424926  
3558.000000	7.408142  
3556.000000	7.202148  
3554.000000	6.996917  
3552.000000	7.251739  
3550.000000	7.247161  
3548.000000	6.876373  
3546.000000	7.082366  
3544.000000	7.537078  
3542.000000	7.544708  
3540.000000	7.296752  
3538.000000	7.115936  
3536.000000	7.259368  
3534.000000	7.352447  
3532.000000	7.129669  
3530.000000	6.999206  
3528.000000	7.115173  
3526.000000	7.200622  
3524.000000	7.264709  
3522.000000	7.462310  
3520.000000	7.411956  
3518.000000	7.307434  
3516.000000	7.277679  
3514.000000	7.186889  
3512.000000	7.064056  
3510.000000	7.170867  
3508.000000	7.347869  
3506.000000	7.100677  
3504.000000	6.995391  
3502.000000	7.348632  
3500.000000	7.409667  
3498.000000	7.213592  
3496.000000	7.249450  
3494.000000	7.324218  
3492.000000	7.254791  
3490.000000	7.185363  
3488.000000	7.238006  
3486.000000	7.289886  
3484.000000	7.186126  
3482.000000	7.218170  
3480.000000	7.376098  
3478.000000	7.328796  
3476.000000	7.250976  
3474.000000	7.310485  
3472.000000	7.305908  
3470.000000	7.231140  
3468.000000	7.225036  
3466.000000	7.271575  
3464.000000	7.258605  
3462.000000	7.279968  
3460.000000	7.331085  
3458.000000	7.324218  
3456.000000	7.315826  
3454.000000	7.325744  
3452.000000	7.296752  
3450.000000	7.147216  
3448.000000	7.135009  
3446.000000	7.375335  
3444.000000	7.363128  
3442.000000	7.343292  
3440.000000	7.343292  
3438.000000	7.276916  
3436.000000	7.254791  
3434.000000	7.241821  
3432.000000	7.250976  
3430.000000	7.264709  
3428.000000	7.273864  
3426.000000	7.263183  
3424.000000	7.188415  
3422.000000	7.174682  
3420.000000	7.331085  
3418.000000	7.406616  
3416.000000	7.315826  
3414.000000	7.253265  
3412.000000	7.268524  
3410.000000	7.276916  
3408.000000	7.263946  
3406.000000	7.243347  
3404.000000	7.221221  
3402.000000	7.225799  
3400.000000	7.212829  
3398.000000	7.231903  
3396.000000	7.255554  
3394.000000	7.215881  
3392.000000	7.285308  
3390.000000	7.336425  
3388.000000	7.292175  
3386.000000	7.269287  
3384.000000	7.302093  
3382.000000	7.306671  
3380.000000	7.295227  
3378.000000	7.287597  
3376.000000	7.292938  
3374.000000	7.307434  
3372.000000	7.286834  
3370.000000	7.239532  
3368.000000	7.222747  
3366.000000	7.276153  
3364.000000	7.322692  
3362.000000	7.312774  
3360.000000	7.317352  
3358.000000	7.318115  
3356.000000	7.334899  
3354.000000	7.350921  
3352.000000	7.321929  
3350.000000	7.305145  
3348.000000	7.314300  
3346.000000	7.312774  
3344.000000	7.289886  
3342.000000	7.276916  
3340.000000	7.254028  
3338.000000	7.226562  
3336.000000	7.275390  
3334.000000	7.334136  
3332.000000	7.331085  
3330.000000	7.302093  
3328.000000	7.287597  
3326.000000	7.278442  
3324.000000	7.292938  
3322.000000	7.326507  
3320.000000	7.325744  
3318.000000	7.308959  
3316.000000	7.295227  
3314.000000	7.287597  
3312.000000	7.270812  
3310.000000	7.229614  
3308.000000	7.249450  
3306.000000	7.260894  
3304.000000	7.249450  
3302.000000	7.259368  
3300.000000	7.247924  
3298.000000	7.249450  
3296.000000	7.236480  
3294.000000	7.192230  
3292.000000	7.209014  
3290.000000	7.274627  
3288.000000	7.302856  
3286.000000	7.283020  
3284.000000	7.292175  
3282.000000	7.313537  
3280.000000	7.302856  
3278.000000	7.270812  
3276.000000	7.260131  
3274.000000	7.312774  
3272.000000	7.330322  
3270.000000	7.320404  
3268.000000	7.334136  
3266.000000	7.341766  
3264.000000	7.353973  
3262.000000	7.347869  
3260.000000	7.341766  
3258.000000	7.321929  
3256.000000	7.310485  
3254.000000	7.347106  
3252.000000	7.373809  
3250.000000	7.347869  
3248.000000	7.270050  
3246.000000	7.253265  
3244.000000	7.337188  
3242.000000	7.367706  
3240.000000	7.341766  
3238.000000	7.324981  
3236.000000	7.308197  
3234.000000	7.287597  
3232.000000	7.306671  
3230.000000	7.321929  
3228.000000	7.318878  
3226.000000	7.328033  
3224.000000	7.323455  
3222.000000	7.294464  
3220.000000	7.288360  
3218.000000	7.318115  
3216.000000	7.305145  
3214.000000	7.312774  
3212.000000	7.312774  
3210.000000	7.310485  
3208.000000	7.347106  
3206.000000	7.342529  
3204.000000	7.328796  
3202.000000	7.311248  
3200.000000	7.286071  
3198.000000	7.300567  
3196.000000	7.345581  
3194.000000	7.344818  
3192.000000	7.322692  
3190.000000	7.318115  
3188.000000	7.324218  
3186.000000	7.322692  
3184.000000	7.328033  
3182.000000	7.321929  
3180.000000	7.307434  
3178.000000	7.344055  
3176.000000	7.378387  
3174.000000	7.373046  
3172.000000	7.361602  
3170.000000	7.350158  
3168.000000	7.361602  
3166.000000	7.368469  
3164.000000	7.354736  
3162.000000	7.358551  
3160.000000	7.365417  
3158.000000	7.356262  
3156.000000	7.350921  
3154.000000	7.338714  
3152.000000	7.339477  
3150.000000	7.368469  
3148.000000	7.371520  
3146.000000	7.362365  
3144.000000	7.372283  
3142.000000	7.368469  
3140.000000	7.341766  
3138.000000	7.353210  
3136.000000	7.366180  
3134.000000	7.363128  
3132.000000	7.379913  
3130.000000	7.358551  
3128.000000	7.340240  
3126.000000	7.344818  
3124.000000	7.334899  
3122.000000	7.339477  
3120.000000	7.336425  
3118.000000	7.318878  
3116.000000	7.322692  
3114.000000	7.357788  
3112.000000	7.357788  
3110.000000	7.339477  
3108.000000	7.357025  
3106.000000	7.382965  
3104.000000	7.348632  
3102.000000	7.328796  
3100.000000	7.370758  
3098.000000	7.377624  
3096.000000	7.389831  
3094.000000	7.411956  
3092.000000	7.376098  
3090.000000	7.343292  
3088.000000	7.334136  
3086.000000	7.320404  
3084.000000	7.290649  
3082.000000	7.277679  
3080.000000	7.310485  
3078.000000	7.360076  
3076.000000	7.383728  
3074.000000	7.378387  
3072.000000	7.357788  
3070.000000	7.324981  
3068.000000	7.304382  
3066.000000	7.338714  
3064.000000	7.400512  
3062.000000	7.418060  
3060.000000	7.393646  
3058.000000	7.366943  
3056.000000	7.391357  
3054.000000	7.426452  
3052.000000	7.389831  
3050.000000	7.371520  
3048.000000	7.417297  
3046.000000	7.415771  
3044.000000	7.371520  
3042.000000	7.361602  
3040.000000	7.377624  
3038.000000	7.379150  
3036.000000	7.356262  
3034.000000	7.353973  
3032.000000	7.393646  
3030.000000	7.450866  
3028.000000	7.443237  
3026.000000	7.413482  
3024.000000	7.417297  
3022.000000	7.422637  
3020.000000	7.413482  
3018.000000	7.400512  
3016.000000	7.396697  
3014.000000	7.392883  
3012.000000	7.411956  
3010.000000	7.446289  
3008.000000	7.454681  
3006.000000	7.434082  
3004.000000	7.440185  
3002.000000	7.447052  
3000.000000	7.431030  
2998.000000	7.409667  
2996.000000	7.402038  
2994.000000	7.408905  
2992.000000	7.420349  
2990.000000	7.425689  
2988.000000	7.436370  
2986.000000	7.444763  
2984.000000	7.426452  
2982.000000	7.397460  
2980.000000	7.386779  
2978.000000	7.402038  
2976.000000	7.400512  
2974.000000	7.397460  
2972.000000	7.409667  
2970.000000	7.415771  
2968.000000	7.415771  
2966.000000	7.421112  
2964.000000	7.425689  
2962.000000	7.423400  
2960.000000	7.434082  
2958.000000	7.447052  
2956.000000	7.454681  
2954.000000	7.458496  
2952.000000	7.463836  
2950.000000	7.453155  
2948.000000	7.426452  
2946.000000	7.406616  
2944.000000	7.415008  
2942.000000	7.444000  
2940.000000	7.463836  
2938.000000	7.466125  
2936.000000	7.470703  
2934.000000	7.490539  
2932.000000	7.462310  
2930.000000	7.427215  
2928.000000	7.452392  
2926.000000	7.500457  
2924.000000	7.542419  
2922.000000	7.562255  
2920.000000	7.553863  
2918.000000	7.539367  
2916.000000	7.536315  
2914.000000	7.531738  
2912.000000	7.528686  
2910.000000	7.528686  
2908.000000	7.534027  
2906.000000	7.537841  
2904.000000	7.539367  
2902.000000	7.540130  
2900.000000	7.528686  
2898.000000	7.521057  
2896.000000	7.530212  
2894.000000	7.541656  
2892.000000	7.545471  
2890.000000	7.538604  
2888.000000	7.539367  
2886.000000	7.536315  
2884.000000	7.536315  
2882.000000	7.543182  
2880.000000	7.543182  
2878.000000	7.526397  
2876.000000	7.496643  
2874.000000	7.468414  
2872.000000	7.476043  
2870.000000	7.498168  
2868.000000	7.487487  
2866.000000	7.466125  
2864.000000	7.476043  
2862.000000	7.504272  
2860.000000	7.523345  
2858.000000	7.548522  
2856.000000	7.573699  
2854.000000	7.590484  
2852.000000	7.604980  
2850.000000	7.600402  
2848.000000	7.587432  
2846.000000	7.601928  
2844.000000	7.605743  
2842.000000	7.577514  
2840.000000	7.553100  
2838.000000	7.571411  
2836.000000	7.596588  
2834.000000	7.604980  
2832.000000	7.605743  
2830.000000	7.604217  
2828.000000	7.602691  
2826.000000	7.604980  
2824.000000	7.608795  
2822.000000	7.606506  
2820.000000	7.592010  
2818.000000	7.587432  
2816.000000	7.605743  
2814.000000	7.623291  
2812.000000	7.615661  
2810.000000	7.600402  
2808.000000	7.602691  
2806.000000	7.611846  
2804.000000	7.616424  
2802.000000	7.615661  
2800.000000	7.600402  
2798.000000	7.585906  
2796.000000	7.591247  
2794.000000	7.604980  
2792.000000	7.613372  
2790.000000	7.599639  
2788.000000	7.597351  
2786.000000	7.610321  
2784.000000	7.611846  
2782.000000	7.624053  
2780.000000	7.645416  
2778.000000	7.643890  
2776.000000	7.631683  
2774.000000	7.619476  
2772.000000	7.610321  
2770.000000	7.614135  
2768.000000	7.621765  
2766.000000	7.625579  
2764.000000	7.637786  
2762.000000	7.638549  
2760.000000	7.626342  
2758.000000	7.629394  
2756.000000	7.627105  
2754.000000	7.609558  
2752.000000	7.607269  
2750.000000	7.622528  
2748.000000	7.629394  
2746.000000	7.633209  
2744.000000	7.640075  
2742.000000	7.645416  
2740.000000	7.641601  
2738.000000	7.650756  
2736.000000	7.669067  
2734.000000	7.681274  
2732.000000	7.679748  
2730.000000	7.666015  
2728.000000	7.660675  
2726.000000	7.659912  
2724.000000	7.672119  
2722.000000	7.682800  
2720.000000	7.684326  
2718.000000	7.692718  
2716.000000	7.685089  
2714.000000	7.683563  
2712.000000	7.689666  
2710.000000	7.685852  
2708.000000	7.683563  
2706.000000	7.690429  
2704.000000	7.692718  
2702.000000	7.690429  
2700.000000	7.691192  
2698.000000	7.688140  
2696.000000	7.687377  
2694.000000	7.698059  
2692.000000	7.711029  
2690.000000	7.707214  
2688.000000	7.696533  
2686.000000	7.690429  
2684.000000	7.697296  
2682.000000	7.679748  
2680.000000	7.656860  
2678.000000	7.669067  
2676.000000	7.691955  
2674.000000	7.711029  
2672.000000	7.717895  
2670.000000	7.698822  
2668.000000	7.691955  
2666.000000	7.712554  
2664.000000	7.711791  
2662.000000	7.688140  
2660.000000	7.681274  
2658.000000	7.685089  
2656.000000	7.700347  
2654.000000	7.712554  
2652.000000	7.708740  
2650.000000	7.704162  
2648.000000	7.707977  
2646.000000	7.698822  
2644.000000	7.688140  
2642.000000	7.689666  
2640.000000	7.687377  
2638.000000	7.689666  
2636.000000	7.698059  
2634.000000	7.702636  
2632.000000	7.710266  
2630.000000	7.717132  
2628.000000	7.711029  
2626.000000	7.704925  
2624.000000	7.709503  
2622.000000	7.727050  
2620.000000	7.745361  
2618.000000	7.749938  
2616.000000	7.749176  
2614.000000	7.755279  
2612.000000	7.750701  
2610.000000	7.742309  
2608.000000	7.740783  
2606.000000	7.742309  
2604.000000	7.749938  
2602.000000	7.752990  
2600.000000	7.751464  
2598.000000	7.755279  
2596.000000	7.763671  
2594.000000	7.767486  
2592.000000	7.765197  
2590.000000	7.769775  
2588.000000	7.774353  
2586.000000	7.775115  
2584.000000	7.761383  
2582.000000	7.753753  
2580.000000	7.769012  
2578.000000	7.756042  
2576.000000	7.742309  
2574.000000	7.758331  
2572.000000	7.775115  
2570.000000	7.782745  
2568.000000	7.781219  
2566.000000	7.769775  
2564.000000	7.769012  
2562.000000	7.775115  
2560.000000	7.778930  
2558.000000	7.777404  
2556.000000	7.778930  
2554.000000	7.780456  
2552.000000	7.783508  
2550.000000	7.772827  
2548.000000	7.763671  
2546.000000	7.769775  
2544.000000	7.769012  
2542.000000	7.765960  
2540.000000	7.763671  
2538.000000	7.762908  
2536.000000	7.772064  
2534.000000	7.775878  
2532.000000	7.769012  
2530.000000	7.767486  
2528.000000	7.770538  
2526.000000	7.769775  
2524.000000	7.775878  
2522.000000	7.789611  
2520.000000	7.799530  
2518.000000	7.804107  
2516.000000	7.811737  
2514.000000	7.809448  
2512.000000	7.791137  
2510.000000	7.795715  
2508.000000	7.804870  
2506.000000	7.794189  
2504.000000	7.789611  
2502.000000	7.803344  
2500.000000	7.811737  
2498.000000	7.803344  
2496.000000	7.800292  
2494.000000	7.808685  
2492.000000	7.814788  
2490.000000	7.815551  
2488.000000	7.823944  
2486.000000	7.828521  
2484.000000	7.829284  
2482.000000	7.826995  
2480.000000	7.826232  
2478.000000	7.833862  
2476.000000	7.836151  
2474.000000	7.827758  
2472.000000	7.824707  
2470.000000	7.833862  
2468.000000	7.838439  
2466.000000	7.825469  
2464.000000	7.824707  
2462.000000	7.826232  
2460.000000	7.825469  
2458.000000	7.825469  
2456.000000	7.833099  
2454.000000	7.846069  
2452.000000	7.853698  
2450.000000	7.865142  
2448.000000	7.865142  
2446.000000	7.859039  
2444.000000	7.852935  
2442.000000	7.845306  
2440.000000	7.840728  
2438.000000	7.834625  
2436.000000	7.840728  
2434.000000	7.840728  
2432.000000	7.829284  
2430.000000	7.830047  
2428.000000	7.836914  
2426.000000	7.849121  
2424.000000	7.856750  
2422.000000	7.855224  
2420.000000	7.859802  
2418.000000	7.864379  
2416.000000	7.856750  
2414.000000	7.862091  
2412.000000	7.878112  
2410.000000	7.877349  
2408.000000	7.876586  
2406.000000	7.877349  
2404.000000	7.863616  
2402.000000	7.859039  
2400.000000	7.865905  
2398.000000	7.874298  
2396.000000	7.871246  
2394.000000	7.877349  
2392.000000	7.883453  
2390.000000	7.884979  
2388.000000	7.855987  
2386.000000	7.798004  
2384.000000	7.713317  
2382.000000	7.611083  
2380.000000	7.505798  
2378.000000	7.431030  
2376.000000	7.401275  
2374.000000	7.388305  
2372.000000	7.406616  
2370.000000	7.413482  
2368.000000	7.408905  
2366.000000	7.498168  
2364.000000	7.675933  
2362.000000	7.787322  
2360.000000	7.840728  
2358.000000	8.014678  
2356.000000	8.276367  
2354.000000	8.448791  
2352.000000	8.593750  
2350.000000	8.360290  
2348.000000	7.623291  
2346.000000	7.245635  
2344.000000	7.521057  
2342.000000	7.758331  
2340.000000	7.899475  
2338.000000	7.968139  
2336.000000	7.999420  
2334.000000	7.927703  
2332.000000	7.884979  
2330.000000	8.007049  
2328.000000	8.090209  
2326.000000	8.046722  
2324.000000	8.002471  
2322.000000	8.037567  
2320.000000	8.118438  
2318.000000	8.154296  
2316.000000	8.113861  
2314.000000	8.065795  
2312.000000	8.063507  
2310.000000	8.074188  
2308.000000	8.074951  
2306.000000	8.074188  
2304.000000	8.052825  
2302.000000	8.024597  
2300.000000	8.012390  
2298.000000	8.016204  
2296.000000	8.015441  
2294.000000	8.011627  
2292.000000	8.007049  
2290.000000	8.013916  
2288.000000	8.021545  
2286.000000	8.019256  
2284.000000	7.995605  
2282.000000	7.975006  
2280.000000	7.970428  
2278.000000	7.978820  
2276.000000	7.984161  
2274.000000	7.984161  
2272.000000	7.996368  
2270.000000	8.005523  
2268.000000	8.013153  
2266.000000	8.026123  
2264.000000	8.029174  
2262.000000	8.025360  
2260.000000	8.018493  
2258.000000	8.013153  
2256.000000	8.019256  
2254.000000	8.017730  
2252.000000	8.010101  
2250.000000	8.013153  
2248.000000	8.027648  
2246.000000	8.042144  
2244.000000	8.047485  
2242.000000	8.036041  
2240.000000	8.041381  
2238.000000	8.058166  
2236.000000	8.052825  
2234.000000	8.047485  
2232.000000	8.049011  
2230.000000	8.044433  
2228.000000	8.041381  
2226.000000	8.042144  
2224.000000	8.045196  
2222.000000	8.048248  
2220.000000	8.056640  
2218.000000	8.055877  
2216.000000	8.066558  
2214.000000	8.083343  
2212.000000	8.081817  
2210.000000	8.068847  
2208.000000	8.066558  
2206.000000	8.078002  
2204.000000	8.090972  
2202.000000	8.097076  
2200.000000	8.090972  
2198.000000	8.085632  
2196.000000	8.090209  
2194.000000	8.091735  
2192.000000	8.093261  
2190.000000	8.099365  
2188.000000	8.094787  
2186.000000	8.100128  
2184.000000	8.112335  
2182.000000	8.117675  
2180.000000	8.116912  
2178.000000	8.114624  
2176.000000	8.131408  
2174.000000	8.140563  
2172.000000	8.135986  
2170.000000	8.139801  
2168.000000	8.145141  
2166.000000	8.153533  
2164.000000	8.158111  
2162.000000	8.163452  
2160.000000	8.166503  
2158.000000	8.152770  
2156.000000	8.145141  
2154.000000	8.152008  
2152.000000	8.162689  
2150.000000	8.167266  
2148.000000	8.166503  
2146.000000	8.169555  
2144.000000	8.181762  
2142.000000	8.186340  
2140.000000	8.188629  
2138.000000	8.189392  
2136.000000	8.190917  
2134.000000	8.192443  
2132.000000	8.195495  
2130.000000	8.202362  
2128.000000	8.204650  
2126.000000	8.203887  
2124.000000	8.201599  
2122.000000	8.198547  
2120.000000	8.203887  
2118.000000	8.200073  
2116.000000	8.184814  
2114.000000	8.201599  
2112.000000	8.229064  
2110.000000	8.237457  
2108.000000	8.247375  
2106.000000	8.248901  
2104.000000	8.253479  
2102.000000	8.261871  
2100.000000	8.261108  
2098.000000	8.258819  
2096.000000	8.254241  
2094.000000	8.249664  
2092.000000	8.238983  
2090.000000	8.252716  
2088.000000	8.264923  
2086.000000	8.261108  
2084.000000	8.266448  
2082.000000	8.274078  
2080.000000	8.277893  
2078.000000	8.294677  
2076.000000	8.312225  
2074.000000	8.312988  
2072.000000	8.306884  
2070.000000	8.308410  
2068.000000	8.280181  
2066.000000	8.264923  
2064.000000	8.332824  
2062.000000	8.331298  
2060.000000	8.306121  
2058.000000	8.312225  
2056.000000	8.317565  
2054.000000	8.334350  
2052.000000	8.341979  
2050.000000	8.349609  
2048.000000	8.351135  
2046.000000	8.345031  
2044.000000	8.322143  
2042.000000	8.330535  
2040.000000	8.385467  
2038.000000	8.377838  
2036.000000	8.353424  
2034.000000	8.358764  
2032.000000	8.365631  
2030.000000	8.361053  
2028.000000	8.371734  
2026.000000	8.376312  
2024.000000	8.371734  
2022.000000	8.368682  
2020.000000	8.320617  
2018.000000	8.306121  
2016.000000	8.435058  
2014.000000	8.452606  
2012.000000	8.402252  
2010.000000	8.388519  
2008.000000	8.395385  
2006.000000	8.408355  
2004.000000	8.420562  
2002.000000	8.428955  
2000.000000	8.426666  
1998.000000	8.441162  
1996.000000	8.403778  
1994.000000	8.287811  
1992.000000	8.399200  
1990.000000	8.529663  
1988.000000	8.500671  
1986.000000	8.493041  
1984.000000	8.460235  
1982.000000	8.453369  
1980.000000	8.470153  
1978.000000	8.483123  
1976.000000	8.478546  
1974.000000	8.478546  
1972.000000	8.481597  
1970.000000	8.392333  
1968.000000	8.351135  
1966.000000	8.563232  
1964.000000	8.573150  
1962.000000	8.506774  
1960.000000	8.513641  
1958.000000	8.500671  
1956.000000	8.495330  
1954.000000	8.546447  
1952.000000	8.559417  
1950.000000	8.538818  
1948.000000	8.501434  
1946.000000	8.429718  
1944.000000	8.356475  
1942.000000	8.620452  
1940.000000	8.763885  
1938.000000	8.612060  
1936.000000	8.575439  
1934.000000	8.578491  
1932.000000	8.586120  
1930.000000	8.587646  
1928.000000	8.588409  
1926.000000	8.474731  
1924.000000	8.381652  
1922.000000	8.654022  
1920.000000	8.500671  
1918.000000	8.575439  
1916.000000	8.839416  
1914.000000	8.676147  
1912.000000	8.515167  
1910.000000	8.516693  
1908.000000	8.703613  
1906.000000	8.704376  
1904.000000	8.657836  
1902.000000	8.661651  
1900.000000	8.657836  
1898.000000	8.567810  
1896.000000	8.552551  
1894.000000	8.707427  
1892.000000	8.551788  
1890.000000	8.530426  
1888.000000	8.845520  
1886.000000	8.756256  
1884.000000	8.700561  
1882.000000	8.718872  
1880.000000	8.687591  
1878.000000	8.703613  
1876.000000	8.717346  
1874.000000	8.692169  
1872.000000	8.408355  
1870.000000	8.191680  
1868.000000	8.827972  
1866.000000	9.130859  
1864.000000	8.894348  
1862.000000	8.737182  
1860.000000	8.752441  
1858.000000	8.793640  
1856.000000	8.804321  
1854.000000	8.768463  
1852.000000	8.769989  
1850.000000	8.651733  
1848.000000	8.547210  
1846.000000	8.342742  
1844.000000	8.804321  
1842.000000	9.329986  
1840.000000	8.940124  
1838.000000	8.756256  
1836.000000	8.879852  
1834.000000	8.784484  
1832.000000	8.370208  
1830.000000	8.622741  
1828.000000	9.069061  
1826.000000	8.813476  
1824.000000	9.046173  
1822.000000	9.086608  
1820.000000	8.880615  
1818.000000	8.846282  
1816.000000	8.934020  
1814.000000	8.750152  
1812.000000	8.656311  
1810.000000	8.946228  
1808.000000	9.075164  
1806.000000	8.958435  
1804.000000	8.730316  
1802.000000	8.600616  
1800.000000	8.973693  
1798.000000	9.058380  
1796.000000	8.800506  
1794.000000	8.429718  
1792.000000	8.901977  
1790.000000	9.532928  
1788.000000	9.111022  
1786.000000	8.805084  
1784.000000	8.921813  
1782.000000	8.834075  
1780.000000	8.995819  
1778.000000	9.071350  
1776.000000	8.658599  
1774.000000	8.260345  
1772.000000	8.939361  
1770.000000	9.477233  
1768.000000	9.358978  
1766.000000	9.291839  
1764.000000	8.730316  
1762.000000	8.843231  
1760.000000	9.217834  
1758.000000	8.916473  
1756.000000	9.220886  
1754.000000	8.880615  
1752.000000	8.337402  
1750.000000	8.817291  
1748.000000	9.327697  
1746.000000	9.278106  
1744.000000	9.004974  
1742.000000	8.953094  
1740.000000	8.987426  
1738.000000	9.224700  
1736.000000	8.257293  
1734.000000	8.672332  
1732.000000	9.819793  
1730.000000	9.469604  
1728.000000	9.410858  
1726.000000	9.095001  
1724.000000	8.992004  
1722.000000	8.926391  
1720.000000	8.173370  
1718.000000	8.096313  
1716.000000	9.548950  
1714.000000	9.834289  
1712.000000	9.457397  
1710.000000	9.057617  
1708.000000	8.625793  
1706.000000	8.721923  
1704.000000	9.102630  
1702.000000	8.158874  
1700.000000	8.879852  
1698.000000	9.264373  
1696.000000	9.468078  
1694.000000	10.073089 
1692.000000	9.206390  
1690.000000	8.853149  
1688.000000	8.836364  
1686.000000	7.944488  
1684.000000	8.938598  
1682.000000	10.169219 
1680.000000	9.501647  
1678.000000	9.020996  
1676.000000	8.686065  
1674.000000	9.301757  
1672.000000	8.825683  
1670.000000	8.873748  
1668.000000	9.942626  
1666.000000	9.415435  
1664.000000	8.766174  
1662.000000	9.348297  
1660.000000	9.541320  
1658.000000	8.985137  
1656.000000	7.969665  
1654.000000	7.540893  
1652.000000	10.552978 
1650.000000	9.403228  
1648.000000	8.305358  
1646.000000	9.821319  
1644.000000	9.970855  
1642.000000	9.334564  
1640.000000	8.927917  
1638.000000	8.243560  
1636.000000	8.829498  
1634.000000	10.304260 
1632.000000	9.651184  
1630.000000	8.993530  
1628.000000	9.045410  
1626.000000	9.098052  
1624.000000	8.917999  
1622.000000	9.613037  
1620.000000	9.190368  
1618.000000	8.514404  
1616.000000	9.570312  
1614.000000	9.839630  
1612.000000	9.260559  
1610.000000	9.144592  
1608.000000	9.375000  
1606.000000	9.441375  
1604.000000	9.354400  
1602.000000	9.427642  
1600.000000	9.504699  
1598.000000	9.385681  
1596.000000	9.334564  
1594.000000	9.459686  
1592.000000	9.503173  
1590.000000	9.499359  
1588.000000	9.552764  
1586.000000	9.508514  
1584.000000	9.502410  
1582.000000	9.491729  
1580.000000	9.288787  
1578.000000	8.645629  
1576.000000	9.492492  
1574.000000	10.224914 
1572.000000	9.250640  
1570.000000	9.111785  
1568.000000	10.029602 
1566.000000	9.676361  
1564.000000	9.494781  
1562.000000	8.669281  
1560.000000	7.473754  
1558.000000	10.654449 
1556.000000	10.507965 
1554.000000	10.028076 
1552.000000	9.712219  
1550.000000	9.661865  
1548.000000	9.649658  
1546.000000	8.924865  
1544.000000	8.653259  
1542.000000	8.463287  
1540.000000	9.891510  
1538.000000	11.051177 
1536.000000	9.677886  
1534.000000	9.216308  
1532.000000	10.218811 
1530.000000	9.644317  
1528.000000	9.130859  
1526.000000	9.343719  
1524.000000	9.170532  
1522.000000	9.026336  
1520.000000	10.165405 
1518.000000	9.629058  
1516.000000	10.046386 
1514.000000	10.068511 
1512.000000	9.471130  
1510.000000	8.822631  
1508.000000	8.275604  
1506.000000	11.105346 
1504.000000	10.976409 
1502.000000	9.860229  
1500.000000	9.240722  
1498.000000	9.283447  
1496.000000	10.253906 
1494.000000	10.317230 
1492.000000	9.464263  
1490.000000	9.676361  
1488.000000	10.643768 
1486.000000	10.735321 
1484.000000	10.312652 
1482.000000	10.089874 
1480.000000	10.197448 
1478.000000	9.798431  
1476.000000	9.613037  
1474.000000	9.506225  
1472.000000	10.680389 
1470.000000	10.969543 
1468.000000	10.138702 
1466.000000	9.767913  
1464.000000	10.467529 
1462.000000	10.311889 
1460.000000	9.220123  
1458.000000	8.988952  
1456.000000	11.065673 
1454.000000	11.023712 
1452.000000	10.456848 
1450.000000	10.212707 
1448.000000	10.414886 
1446.000000	10.744476 
1444.000000	10.548400 
1442.000000	10.419464 
1440.000000	10.122680 
1438.000000	9.716796  
1436.000000	10.629272 
1434.000000	10.822296 
1432.000000	10.307312 
1430.000000	10.397338 
1428.000000	10.665893 
1426.000000	10.267639 
1424.000000	10.342407 
1422.000000	10.250091 
1420.000000	9.803009  
1418.000000	10.801696 
1416.000000	10.971832 
1414.000000	10.581970 
1412.000000	10.402679 
1410.000000	10.470581 
1408.000000	10.331726 
1406.000000	10.179901 
1404.000000	10.536193 
1402.000000	10.420227 
1400.000000	10.114288 
1398.000000	10.350799 
1396.000000	10.373687 
1394.000000	10.782623 
1392.000000	10.806274 
1390.000000	10.280609 
1388.000000	10.131835 
1386.000000	10.462188 
1384.000000	10.397338 
1382.000000	10.344696 
1380.000000	10.443115 
1378.000000	10.494995 
1376.000000	10.308837 
1374.000000	10.679626 
1372.000000	10.966491 
1370.000000	10.742950 
1368.000000	10.839080 
1366.000000	10.752868 
1364.000000	10.451507 
1362.000000	10.930633 
1360.000000	11.174774 
1358.000000	10.995483 
1356.000000	10.911560 
1354.000000	10.990905 
1352.000000	10.995483 
1350.000000	10.977935 
1348.000000	11.044311 
1346.000000	11.078643 
1344.000000	11.015319 
1342.000000	10.771942 
1340.000000	10.822296 
1338.000000	11.289215 
1336.000000	11.363220 
1334.000000	11.243438 
1332.000000	11.183929 
1330.000000	11.189270 
1328.000000	11.198425 
1326.000000	11.187744 
1324.000000	11.193084 
1322.000000	11.132049 
1320.000000	11.106872 
1318.000000	11.238098 
1316.000000	11.256408 
1314.000000	11.206054 
1312.000000	11.318969 
1310.000000	11.317443 
1308.000000	11.294555 
1306.000000	11.317443 
1304.000000	11.335754 
1302.000000	11.354827 
1300.000000	11.355590 
1298.000000	11.351776 
1296.000000	11.383819 
1294.000000	11.388397 
1292.000000	11.370086 
1290.000000	11.364746 
1288.000000	11.397552 
1286.000000	11.432647 
1284.000000	11.421203 
1282.000000	11.411285 
1280.000000	11.415100 
1278.000000	11.427307 
1276.000000	11.431121 
1274.000000	11.392211 
1272.000000	11.386108 
1270.000000	11.431121 
1268.000000	11.436462 
1266.000000	11.430358 
1264.000000	11.413574 
1262.000000	11.383056 
1260.000000	11.403656 
1258.000000	11.421203 
1256.000000	11.380767 
1254.000000	11.338806 
1252.000000	11.294555 
1250.000000	11.257934 
1248.000000	11.221313 
1246.000000	11.171722 
1244.000000	11.113739 
1242.000000	11.065673 
1240.000000	11.003112 
1238.000000	10.955810 
1236.000000	10.897064 
1234.000000	10.826873 
1232.000000	10.755920 
1230.000000	10.697174 
1228.000000	10.636138 
1226.000000	10.582733 
1224.000000	10.533142 
1222.000000	10.452270 
1220.000000	10.366058 
1218.000000	10.287475 
1216.000000	10.208129 
1214.000000	10.127258 
1212.000000	10.071563 
1210.000000	10.024261 
1208.000000	9.963989  
1206.000000	9.883117  
1204.000000	9.799957  
1202.000000	9.731292  
1200.000000	9.682464  
1198.000000	9.620666  
1196.000000	9.549713  
1194.000000	9.472656  
1192.000000	9.388732  
1190.000000	9.302520  
1188.000000	9.246826  
1186.000000	9.193420  
1184.000000	9.130096  
1182.000000	9.066009  
1180.000000	9.010314  
1178.000000	8.959960  
1176.000000	8.901214  
1174.000000	8.855438  
1172.000000	8.816528  
1170.000000	8.772277  
1168.000000	8.741760  
1166.000000	8.741760  
1164.000000	8.768463  
1162.000000	8.787536  
1160.000000	8.781433  
1158.000000	8.779907  
1156.000000	8.781433  
1154.000000	8.763885  
1152.000000	8.718109  
1150.000000	8.667755  
1148.000000	8.612823  
1146.000000	8.561706  
1144.000000	8.518218  
1142.000000	8.495330  
1140.000000	8.458709  
1138.000000	8.423614  
1136.000000	8.374023  
1134.000000	8.327484  
1132.000000	8.290100  
1130.000000	8.242034  
1128.000000	8.171844  
1126.000000	8.113861  
1124.000000	8.064270  
1122.000000	8.025360  
1120.000000	7.978820  
1118.000000	7.935333  
1116.000000	7.907104  
1114.000000	7.852172  
1112.000000	7.772827  
1110.000000	7.727050  
1108.000000	7.701110  
1106.000000	7.666778  
1104.000000	7.649993  
1102.000000	7.623291  
1100.000000	7.592773  
1098.000000	7.575225  
1096.000000	7.566833  
1094.000000	7.574462  
1092.000000	7.578277  
1090.000000	7.582855  
1088.000000	7.606506  
1086.000000	7.639312  
1084.000000	7.691192  
1082.000000	7.731628  
1080.000000	7.786560  
1078.000000	7.855987  
1076.000000	7.966613  
1074.000000	8.094024  
1072.000000	8.222961  
1070.000000	8.357238  
1068.000000	8.518218  
1066.000000	8.692169  
1064.000000	8.863830  
1062.000000	9.056854  
1060.000000	9.255981  
1058.000000	9.436798  
1056.000000	9.597015  
1054.000000	9.757232  
1052.000000	9.970092  
1050.000000	10.258483 
1048.000000	10.526275 
1046.000000	10.699462 
1044.000000	10.796356 
1042.000000	10.902404 
1040.000000	11.043548 
1038.000000	11.185455 
1036.000000	11.283874 
1034.000000	11.402893 
1032.000000	11.523437 
1030.000000	11.621093 
1028.000000	11.714935 
1026.000000	11.808776 
1024.000000	11.885833 
1022.000000	11.963653 
1020.000000	12.051391 
1018.000000	12.129211 
1016.000000	12.176513 
1014.000000	12.213134 
1012.000000	12.257385 
1010.000000	12.295532 
1008.000000	12.313079 
1006.000000	12.313079 
1004.000000	12.300109 
1002.000000	12.285614 
1000.000000	12.270355 
998.000000	 12.250518 
996.000000	 12.220001 
994.000000	 12.181091 
992.000000	 12.139892 
990.000000	 12.088012 
988.000000	 12.020874 
986.000000	 11.938476 
984.000000	 11.856079 
982.000000	 11.770629 
980.000000	 11.663818 
978.000000	 11.531066 
976.000000	 11.407470 
974.000000	 11.257934 
972.000000	 11.093902 
970.000000	 10.939788 
968.000000	 10.768127 
966.000000	 10.560607 
964.000000	 10.314178 
962.000000	 10.028076 
960.000000	 9.714508  
958.000000	 9.377288  
956.000000	 9.033203  
954.000000	 8.715057  
952.000000	 8.460998  
950.000000	 8.273315  
948.000000	 8.127593  
946.000000	 8.010864  
944.000000	 7.935333  
942.000000	 7.893371  
940.000000	 7.863616  
938.000000	 7.852172  
936.000000	 7.860565  
934.000000	 7.863616  
932.000000	 7.853698  
930.000000	 7.880401  
928.000000	 7.905578  
926.000000	 7.917785  
924.000000	 7.933044  
922.000000	 7.922363  
920.000000	 7.874298  
918.000000	 7.846069  
916.000000	 7.822418  
914.000000	 7.792663  
912.000000	 7.762908  
910.000000	 7.728576  
908.000000	 7.685089  
906.000000	 7.655334  
904.000000	 7.619476  
902.000000	 7.569885  
900.000000	 7.517242  
898.000000	 7.472229  
896.000000	 7.443237  
894.000000	 7.431793  
892.000000	 7.385253  
890.000000	 7.328033  
888.000000	 7.316589  
886.000000	 7.304382  
884.000000	 7.250213  
882.000000	 7.199859  
880.000000	 7.218170  
878.000000	 7.247161  
876.000000	 7.229614  
874.000000	 7.199096  
872.000000	 7.203674  
870.000000	 7.224273  
868.000000	 7.217407  
866.000000	 7.197570  
864.000000	 7.173156  
862.000000	 7.140350  
860.000000	 7.125091  
858.000000	 7.113647  
856.000000	 7.105255  
854.000000	 7.108306  
852.000000	 7.107543  
850.000000	 7.080841  
848.000000	 7.098388  
846.000000	 7.120513  
844.000000	 7.107543  
842.000000	 7.123565  
840.000000	 7.127380  
838.000000	 7.112884  
836.000000	 7.105255  
834.000000	 7.081604  
832.000000	 7.028961  
830.000000	 7.009124  
828.000000	 7.030487  
826.000000	 7.061004  
824.000000	 7.128143  
822.000000	 7.232666  
820.000000	 7.276153  
818.000000	 7.266235  
816.000000	 7.229614  
814.000000	 7.254028  
812.000000	 7.290649  
810.000000	 7.297515  
808.000000	 7.315826  
806.000000	 7.347869  
804.000000	 7.367706  
802.000000	 7.356262  
800.000000	 7.357025  
798.000000	 7.395935  
796.000000	 7.450866  
794.000000	 7.501220  
792.000000	 7.495880  
790.000000	 7.462310  
788.000000	 7.468414  
786.000000	 7.500457  
784.000000	 7.520294  
782.000000	 7.522583  
780.000000	 7.534790  
778.000000	 7.539367  
776.000000	 7.559967  
774.000000	 7.608795  
772.000000	 7.637786  
770.000000	 7.683563  
768.000000	 7.730102  
766.000000	 7.777404  
764.000000	 7.811737  
762.000000	 7.849884  
760.000000	 7.919311  
758.000000	 7.962036  
756.000000	 7.988739  
754.000000	 7.989501  
752.000000	 8.001708  
750.000000	 8.029174  
748.000000	 8.053588  
746.000000	 8.103179  
744.000000	 8.190917  
742.000000	 8.241271  
740.000000	 8.256530  
738.000000	 8.291625  
736.000000	 8.314514  
734.000000	 8.332824  
732.000000	 8.367156  
730.000000	 8.407592  
728.000000	 8.455657  
726.000000	 8.501434  
724.000000	 8.511352  
722.000000	 8.509063  
720.000000	 8.572387  
718.000000	 8.650207  
716.000000	 8.663940  
714.000000	 8.731842  
712.000000	 8.809661  
710.000000	 8.803558  
708.000000	 8.787536  
706.000000	 8.813476  
704.000000	 8.877563  
702.000000	 8.955383  
700.000000	 9.006500  
698.000000	 9.023284  
696.000000	 9.025573  
694.000000	 9.035491  
692.000000	 9.038543  
690.000000	 9.113311  
688.000000	 9.243774  
686.000000	 9.310913  
684.000000	 9.303283  
682.000000	 9.304046  
680.000000	 9.346771  
678.000000	 9.453582  
676.000000	 9.522247  
674.000000	 9.574890  
672.000000	 9.504699  
670.000000	 9.191894  
668.000000	 9.701538  
666.000000	 10.063171 
664.000000	 9.801483  
662.000000	 9.783935  
660.000000	 9.885406  
658.000000	 9.957885  
656.000000	 9.966278  
654.000000	 9.993743  
652.000000	 10.012054 
650.000000	 10.055541 
648.000000	 10.137939 
646.000000	 10.169219 
644.000000	 10.231018 
642.000000	 10.285186 
640.000000	 10.306549 
638.000000	 10.300445 
636.000000	 10.282897 
634.000000	 10.386657 
632.000000	 10.506439 
630.000000	 10.552215 
628.000000	 10.590362 
626.000000	 10.624694 
624.000000	 10.624694 
622.000000	 10.636138 
620.000000	 10.636901 
618.000000	 10.678100 
616.000000	 10.855865 
614.000000	 10.933685 
612.000000	 10.874176 
610.000000	 10.878753 
608.000000	 10.903930 
606.000000	 10.926055 
604.000000	 10.974121 
602.000000	 11.017608 
600.000000	 11.047363 
598.000000	 11.089324 
596.000000	 11.105346 
594.000000	 11.136627 
592.000000	 11.321258 
590.000000	 11.486053 
588.000000	 11.437225 
586.000000	 11.425781 
584.000000	 11.561584 
582.000000	 11.656951 
580.000000	 11.600494 
578.000000	 11.593627 
576.000000	 11.737060 
574.000000	 11.808013 
572.000000	 11.723327 
570.000000	 11.627960 
568.000000	 11.606597 
566.000000	 11.605072 
564.000000	 11.547851 
562.000000	 11.551666 
560.000000	 11.615753 
558.000000	 11.669921 
556.000000	 11.692810 
554.000000	 11.691284 
552.000000	 11.721038 
550.000000	 11.768341 
548.000000	 11.900329 
546.000000	 11.955261 
544.000000	 11.924743 
542.000000	 11.928558 
540.000000	 12.017822 
538.000000	 12.049865 
536.000000	 12.028503 
534.000000	 12.032318 
532.000000	 11.992645 
530.000000	 11.794281 
528.000000	 11.676788 
526.000000	 11.769104 
524.000000	 11.827087 
522.000000	 11.712646 
520.000000	 11.541748 
518.000000	 11.437988 
516.000000	 11.434173 
514.000000	 11.446380 
512.000000	 11.415863 
510.000000	 11.306762 
508.000000	 11.220550 
506.000000	 11.358642 
504.000000	 11.342620 
502.000000	 11.334991 
500.000000	 11.479187 
498.000000	 11.529541 
496.000000	 11.532592 
494.000000	 11.450195 
492.000000	 11.448669 
490.000000	 11.511993 
488.000000	 11.388397 
486.000000	 11.100769 
484.000000	 11.032104 
482.000000	 11.148071 
480.000000	 10.930633 
478.000000	 10.595703 
476.000000	 10.323333 
474.000000	 10.237121 
472.000000	 10.473632 
470.000000	 10.330200 
468.000000	 10.085296 
466.000000	 10.179138 
464.000000	 10.173034 
462.000000	 9.993743  
460.000000	 9.811401  
458.000000	 10.083770 
456.000000	 10.485839 
454.000000	 10.510253 
452.000000	 10.740661 
450.000000	 10.831451 
448.000000	 10.947418 
446.000000	 11.371612 
444.000000	 11.657714 
442.000000	 11.639404 
440.000000	 11.551666 
438.000000	 11.557769 
436.000000	 11.678314 
434.000000	 11.713409 
432.000000	 11.892700 
430.000000	 12.124633 
428.000000	 12.449645 
426.000000	 12.401580 
424.000000	 12.583160 
422.000000	 12.627410 
420.000000	 12.136077 
418.000000	 13.032531 
416.000000	 13.448333 
414.000000	 13.379669 
412.000000	 13.729858 
410.000000	 14.012145 
408.000000	 13.909149 
406.000000	 12.825012 
404.000000	 11.326599 
402.000000	 10.736083 
400.000000	 11.025238 

